Time (s)	Acceleration x (m/s^2)	Acceleration y (m/s^2)	Acceleration z (m/s^2)
0.0	5.051100952E-3	3.446345869E-3	-5.747420057E-3
0.01	1.000216287E-2	2.571849380E-4	-4.456535791E-3
0.02	1.305072835E-2	-2.788890215E-3	-4.771329707E-3
0.03	1.532589724E-2	-1.574277398E-3	-5.093031631E-3
0.04	1.461209860E-2	-1.559517293E-4	-4.635335847E-3
0.05	1.222488144E-2	2.581810058E-3	-4.284235716E-3
0.06	1.022797435E-2	4.247779117E-3	-4.656024456E-3
0.07	8.564773639E-3	3.854059382E-3	-4.917272510E-3
0.08	5.811273812E-3	3.189444820E-3	-4.894014007E-3
0.09	1.091411979E-3	3.111838150E-3	-4.460347577E-3
0.1	-3.909369851E-3	3.589879791E-3	-3.957797681E-3
0.11	-8.326837867E-3	3.800955195E-3	-4.713336484E-3
0.12	-1.202053409E-2	2.596427988E-3	-3.636800789E-3
0.13	-1.425293744E-2	-4.519905417E-4	-4.926642703E-3
0.14	-1.495429847E-2	-2.351673144E-3	-3.991320848E-3
0.15	-1.545284172E-2	-3.533231375E-3	-3.311163648E-3
0.16	-1.523996257E-2	-2.115646820E-3	-3.644162967E-3
0.17	-1.500482044E-2	7.693512269E-4	-4.639587095E-3
0.18	-1.277055555E-2	3.110732269E-3	-4.803495931E-3
0.19	-1.055591727E-2	4.157449996E-3	-4.120661937E-3
0.2	-8.746694681E-3	3.563669694E-3	-3.916747344E-3
0.21	-5.081745470E-3	3.341663886E-3	-4.373018466E-3
0.22	-1.123192439E-3	3.254638687E-3	-4.810881124E-3
0.23	1.439625536E-3	2.484137184E-3	-4.941617388E-3
0.24	3.102136788E-3	1.446511716E-3	-4.397351599E-3
0.25	5.137371563E-3	7.475372337E-4	-3.525278924E-3
0.26	7.054243210E-3	-1.318840578E-5	-3.457093122E-3
0.27	8.386792820E-3	-6.057487394E-4	-4.193562787E-3
0.28	1.151238363E-2	-1.275472364E-3	-4.970816796E-3
0.29	1.134457033E-2	4.074330945E-4	-3.964845309E-3
0.3	1.138903196E-2	3.107327315E-3	-3.001791700E-3
0.31	8.848992479E-3	6.266652519E-3	-3.217956197E-3
0.32	7.953792408E-3	6.733489094E-3	-3.605436556E-3
0.33	7.430002639E-3	4.157315063E-3	-3.603146900E-3
0.34	6.620495214E-3	1.153596021E-3	-3.059975157E-3
0.35000000000000003	3.983823030E-3	1.615632738E-4	-3.658633970E-3
0.36	4.223018310E-4	1.446750225E-6	-3.844948401E-3
0.37	-3.125564994E-3	3.337317377E-4	-3.523455475E-3
0.38	-5.556888715E-3	5.440466685E-4	-3.622965164E-3
0.39	-6.393694987E-3	-3.806411875E-4	-3.661497477E-3
0.4	-7.603791057E-3	-1.094464928E-3	-3.907690657E-3
0.41000000000000003	-9.041671567E-3	6.302034870E-4	-4.728867949E-3
0.42	-9.341290223E-3	3.160681610E-3	-3.916695761E-3
0.43	-1.007106748E-2	4.680728109E-3	-3.621020045E-3
0.44	-8.155904697E-3	6.320232543E-3	-3.933518739E-3
0.45	-3.568114884E-3	4.110758630E-3	-3.455144854E-3
0.46	1.040642242E-3	1.167551305E-3	-2.640136689E-3
0.47000000000000003	5.440903453E-3	2.368998170E-4	-3.366918402E-3
0.48	1.025855807E-2	-5.280983335E-4	-3.638482092E-3
0.49	1.405285944E-2	-6.376728685E-4	-2.662547917E-3
0.5	1.693521551E-2	4.065328605E-5	-2.906934347E-3
0.51	1.955406659E-2	9.127485422E-4	-3.973175900E-3
0.52	2.149046779E-2	1.664698816E-3	-3.067233410E-3
0.53	2.188709006E-2	2.464797328E-3	-3.291265929E-3
0.54	2.075890704E-2	3.000390995E-3	-2.243735298E-3
0.55	1.707163593E-2	3.477840878E-3	-2.509678336E-3
0.56	1.337552946E-2	4.771577206E-3	-2.940599531E-3
0.5700000000000001	8.043853146E-3	4.677923116E-3	-2.943331465E-3
0.58	4.886141133E-3	2.494295088E-3	-2.542559919E-3
0.59	1.073575517E-3	5.651566594E-4	-2.969907848E-3
0.6	-1.682084014E-3	-2.015476922E-3	-3.548193917E-3
0.61	-3.842093358E-3	-2.603545981E-3	-2.486097296E-3
0.62	-6.582436987E-3	-5.540075853E-4	-2.964693285E-3
0.63	-8.413640319E-3	2.188002631E-3	-2.826286969E-3
0.64	-8.319595067E-3	2.871867605E-3	-2.234906924E-3
0.65	-7.520972214E-3	1.794526941E-3	-1.726347954E-3
0.66	-6.480564219E-3	1.284172460E-3	-1.637857850E-3
0.67	-5.880280550E-3	2.305218361E-3	-1.840714695E-3
0.68	-6.164319319E-3	3.127075123E-3	-1.681394122E-3
0.6900000000000001	-5.394062263E-3	3.227659576E-3	-1.843639879E-3
0.7000000000000001	-3.510559124E-3	2.149690652E-3	-1.677310814E-3
0.71	5.128836421E-4	4.594388753E-4	-2.138956987E-3
0.72	3.464659120E-3	-1.596057005E-3	-3.120892566E-3
0.73	5.183005175E-3	-1.132352937E-3	-1.997339006E-3
0.74	5.007048649E-3	5.723462433E-4	-1.932055219E-3
0.75	6.954412375E-3	1.905261937E-3	-2.407022900E-3
0.76	8.695426446E-3	3.938265986E-3	-2.375471268E-3
0.77	1.015074548E-2	5.010689328E-3	-1.735552139E-3
0.78	1.075693420E-2	4.602795906E-3	-1.946521881E-3
0.79	1.149354011E-2	3.076655701E-3	-1.906080322E-3
0.8	9.972131716E-3	2.035293344E-3	-1.815183477E-3
0.81	6.890488449E-3	1.109211456E-3	-1.840937595E-3
0.8200000000000001	3.711340334E-3	6.016060105E-4	-2.171904120E-3
0.8300000000000001	2.073124899E-4	4.095166464E-4	-2.221994893E-3
0.84	-3.298044728E-3	-2.070385934E-4	-1.254225790E-3
0.85	-6.505054059E-3	2.877481574E-4	-1.357447624E-3
0.86	-9.736185563E-3	-9.142150921E-4	-8.353542868E-4
0.87	-1.251103632E-2	7.139524797E-4	-6.154024227E-4
0.88	-1.751959430E-2	2.965024524E-3	-3.863187214E-4
0.89	-1.861206061E-2	4.160588470E-3	-1.450979881E-4
0.9	-1.856143105E-2	4.662320212E-3	-1.652955090E-3
0.91	-1.600094648E-2	2.435781004E-3	-2.298452712E-3
0.92	-1.377871117E-2	1.803870298E-4	-1.492975840E-3
0.93	-1.089240275E-2	-8.921544168E-5	-8.694977815E-4
0.9400000000000001	-8.148447643E-3	5.434153480E-4	-1.676130938E-3
0.9500000000000001	-4.994430164E-3	6.676443407E-4	-1.708216011E-3
0.96	-5.891354264E-4	2.803604964E-4	-1.229512321E-3
0.97	4.805159306E-3	1.519539389E-4	-1.014502808E-3
0.98	9.720371364E-3	1.383827107E-4	-1.441700182E-3
0.99	1.214412423E-2	4.833125485E-4	-1.620461060E-3
1.0	1.286645419E-2	2.294505117E-3	-1.071414758E-3
1.01	1.323531380E-2	4.170000779E-3	-1.038910970E-3
1.02	1.366098540E-2	4.691884570E-3	-3.521993844E-4
1.03	1.357287822E-2	3.939614085E-3	-8.105306459E-4
1.04	1.201381549E-2	2.156744216E-3	-1.416711450E-3
1.05	7.720723253E-3	1.204721978E-4	-1.107627830E-3
1.06	5.128674162E-3	2.103426487E-4	-1.889902815E-3
1.07	8.428605840E-4	5.038581462E-4	-9.070449261E-4
1.08	-1.262435831E-3	1.116086460E-3	-5.927364556E-5
1.09	-3.324494100E-3	1.388080811E-3	-1.727667396E-4
1.1	-5.377708551E-3	1.351373480E-3	-3.849180718E-4
1.11	-5.689331396E-3	1.240447672E-3	-7.386198385E-4
1.12	-5.797630836E-3	1.820520654E-3	-4.191943889E-4
1.1300000000000001	-7.001457470E-3	3.028025270E-3	-2.946581265E-4
1.1400000000000001	-8.109163715E-3	3.841083283E-3	-1.714838143E-4
1.1500000000000001	-7.181218662E-3	3.240345968E-3	2.250765166E-4
1.16	-4.240333842E-3	1.456325847E-3	1.164663912E-4
1.17	-1.437916719E-3	-6.313328993E-4	4.100405945E-4
1.18	9.584029393E-4	-1.040592657E-3	5.266152902E-4
1.19	1.709460784E-3	-1.172134288E-3	-3.913180529E-4
1.2	2.508619432E-3	7.172931151E-4	-3.133773235E-4
1.21	4.150881571E-3	1.132589671E-3	-5.789445280E-5
1.22	7.923848996E-3	1.923629925E-3	-2.909217071E-4
1.23	1.321097690E-2	2.082965569E-3	-1.790887058E-4
1.24	1.610944511E-2	1.685606559E-3	-5.694765776E-4
1.25	1.731158330E-2	2.236451478E-3	-7.063762220E-4
1.26	1.759270448E-2	3.436311325E-3	-1.563015217E-4
1.27	1.736289884E-2	4.350669937E-3	-9.940011734E-5
1.28	1.690481491E-2	3.016658358E-3	3.722540672E-4
1.29	1.622892055E-2	6.078365569E-4	-3.425873432E-5
1.3	1.429498221E-2	-6.148702846E-4	-5.259795438E-4
1.31	1.096363922E-2	-3.013843303E-4	9.430636828E-5
1.32	6.969262295E-3	7.816788122E-4	-1.034122957E-3
1.33	2.193114486E-3	2.115928960E-3	-7.638400687E-4
1.34	-1.779247759E-3	2.875490993E-3	1.039999298E-3
1.35	-4.421135998E-3	3.098042750E-3	2.441845435E-3
1.36	-7.975271019E-3	2.966547850E-3	-2.527879118E-5
1.37	-1.035323198E-2	2.872202978E-3	1.045644446E-4
1.3800000000000001	-1.135416101E-2	1.374807810E-3	6.896768940E-5
1.3900000000000001	-1.163088973E-2	1.425862763E-3	5.957869859E-4
1.4000000000000001	-1.091364134E-2	2.105274951E-3	-1.046531725E-4
1.41	-8.621740825E-3	1.662526190E-3	4.727165418E-4
1.42	-5.558858478E-3	2.626425218E-4	1.195628585E-3
1.43	-2.108293896E-3	-9.157295988E-4	6.727938141E-4
1.44	1.363572335E-3	-4.529058711E-4	2.999356108E-4
1.45	4.651030328E-3	1.287693520E-3	5.401423612E-4
1.46	6.473439134E-3	2.703225650E-3	8.706446009E-5
1.47	7.820854676E-3	4.068806139E-3	-1.554217880E-5
1.48	1.099108184E-2	3.894839353E-3	8.267164445E-5
1.49	1.290972112E-2	1.631311537E-3	6.572682573E-4
1.5	1.390198976E-2	2.674206058E-3	1.360942079E-3
1.51	1.156493179E-2	2.949523683E-3	1.389117896E-3
1.52	8.430458949E-3	2.053900571E-3	2.498635282E-4
1.53	4.837538255E-3	2.598798367E-3	1.285737292E-3
1.54	2.795024158E-3	1.111866976E-3	7.680506243E-4
1.55	6.667561848E-4	-6.997577151E-4	8.995982423E-4
1.56	-1.702037859E-3	-1.087139467E-3	4.288005998E-5
1.57	-4.919931388E-3	6.342549572E-4	8.933384396E-4
1.58	-8.367324232E-3	2.887323816E-3	1.101558882E-3
1.59	-1.039358223E-2	3.956167929E-3	1.146851516E-3
1.6	-1.162636093E-2	3.776049278E-3	1.653915481E-3
1.61	-1.182662312E-2	3.122127579E-3	1.722291636E-3
1.62	-1.132347861E-2	2.007635172E-3	8.588187343E-4
1.6300000000000001	-1.198004156E-2	8.967576755E-4	4.690552776E-4
1.6400000000000001	-1.195085901E-2	1.447280701E-3	1.786489853E-3
1.6500000000000001	-1.266982188E-2	1.571207586E-3	2.240556017E-3
1.6600000000000001	-1.053457579E-2	1.899093275E-4	1.638234365E-3
1.67	-8.634578971E-3	-6.203004449E-4	1.644280165E-3
1.68	-5.704443293E-3	-8.236915066E-4	4.885783701E-4
1.69	-2.466101111E-3	2.167399291E-5	1.750348162E-4
1.7	4.903782810E-4	1.831483237E-3	1.261159519E-3
1.71	3.296778305E-3	3.568992749E-3	1.660983206E-3
1.72	5.953913084E-3	4.468230649E-3	1.100522903E-3
1.73	8.796756650E-3	4.386499473E-3	1.094673214E-3
1.74	1.160371643E-2	3.276835291E-3	1.172578717E-3
1.75	1.332663217E-2	1.680954050E-3	1.642554689E-3
1.76	1.470366671E-2	7.433863024E-4	6.138699666E-4
1.77	1.388374779E-2	8.008278087E-4	1.197732339E-3
1.78	1.176796171E-2	1.759941483E-3	4.293365018E-4
1.79	8.270371968E-3	1.365530325E-3	-1.176937136E-4
1.8	6.294170720E-3	-1.279702481E-5	8.286787630E-5
1.81	2.977605003E-3	6.718039702E-4	8.319758209E-4
1.82	-3.166842375E-5	3.952851948E-4	1.531270710E-3
1.83	-5.367829273E-3	1.983130090E-3	1.254036540E-3
1.84	-9.029916727E-3	3.014915534E-3	9.820292209E-4
1.85	-1.142099918E-2	3.238386866E-3	1.778058461E-3
1.86	-1.178213686E-2	2.232255480E-3	2.269907373E-3
1.87	-1.066516845E-2	5.603673491E-4	1.754782496E-3
1.8800000000000001	-9.097511889E-3	-8.920144862E-4	1.395142936E-3
1.8900000000000001	-6.800324064E-3	-1.090901593E-3	1.378870943E-3
1.9000000000000001	-4.259075026E-3	3.628604876E-4	1.055659015E-3
1.9100000000000001	-1.748887164E-3	1.844406709E-3	1.166138741E-3
1.92	2.092186210E-3	1.584561510E-3	1.204792702E-3
1.93	7.398586784E-3	1.944135397E-3	2.325707129E-3
1.94	1.051043150E-2	9.239780344E-4	2.048270615E-3
1.95	1.233946719E-2	2.411305608E-3	1.057344795E-3
1.96	1.418553578E-2	2.832539815E-3	1.057940953E-3
1.97	1.615575563E-2	3.199206741E-3	4.833329239E-4
1.98	1.645457940E-2	2.557156468E-3	1.183706233E-3
1.99	1.589134633E-2	3.017670905E-3	2.461021970E-3
2.0	1.588022637E-2	1.455553289E-3	2.302202353E-3
2.0100000000000002	1.541452394E-2	-3.937326007E-4	9.912045307E-4
2.02	1.396433998E-2	-2.627047278E-4	1.032083040E-3
2.0300000000000002	1.096016790E-2	9.326235553E-4	1.453120942E-3
2.04	6.892711081E-3	1.516155904E-3	1.184338874E-3
2.05	4.286783182E-3	2.543941601E-3	1.531180069E-3
2.06	2.806467712E-3	3.126794742E-3	1.385675432E-3
2.07	1.447483182E-3	1.115147191E-3	1.259746811E-3
2.08	-9.802372365E-4	6.694460443E-4	2.408499377E-3
2.09	-4.180601756E-3	1.781953028E-3	1.456564884E-3
2.1	-7.929807217E-3	2.851473901E-3	1.558871787E-3
2.11	-9.647779826E-3	2.217490835E-3	1.647658326E-3
2.12	-8.981793794E-3	1.507042441E-3	1.408284441E-3
2.13	-7.326332844E-3	-1.087830487E-3	2.690416133E-3
2.14	-6.973408768E-3	1.289457585E-4	1.722968704E-3
2.15	-6.848176758E-3	8.270824570E-4	1.842264843E-3
2.16	-5.669522558E-3	2.016522855E-3	1.583904230E-3
2.17	-2.676778937E-3	2.358563478E-3	2.210811362E-3
2.18	3.080620462E-4	2.133403007E-3	1.908187225E-3
2.19	4.085051770E-3	1.378740373E-3	1.792308492E-3
2.2	7.431186105E-3	9.666267893E-4	2.276378725E-3
2.21	8.756708233E-3	2.000746421E-3	2.121981524E-3
2.22	1.007139898E-2	2.864837349E-3	1.683733295E-3
2.23	1.201529852E-2	1.873526703E-3	1.695277845E-3
2.24	1.237476422E-2	1.792679957E-3	2.270103563E-3
2.25	1.298192289E-2	1.168901822E-3	2.192757895E-3
2.2600000000000002	1.124923698E-2	3.667948058E-4	2.782741431E-3
2.27	9.466966939E-3	5.503193468E-4	1.865094439E-3
2.2800000000000002	5.015850029E-3	1.448606866E-3	1.980403583E-3
2.29	8.687691757E-4	2.602080603E-3	1.981822105E-3
2.3000000000000003	-3.936253652E-3	3.781829238E-3	1.535255832E-3
2.31	-7.689065823E-3	3.459253399E-3	2.780348058E-3
2.32	-1.069653430E-2	1.920027868E-3	3.211337222E-3
2.33	-1.363931977E-2	9.961735865E-4	2.653013025E-3
2.34	-1.541916511E-2	8.956813689E-4	1.729926754E-3
2.35	-1.625348535E-2	1.365208945E-3	1.387249792E-3
2.36	-1.647871470E-2	1.915412069E-3	1.873648809E-3
2.37	-1.575487739E-2	1.905853256E-3	2.435020748E-3
2.38	-1.266567239E-2	1.323534678E-3	2.709639345E-3
2.39	-7.419031783E-3	-2.776405186E-6	2.409959422E-3
2.4	-4.510486662E-3	2.105706145E-4	1.685269426E-3
2.41	-2.472417363E-3	2.254574171E-3	1.990126385E-3
2.42	-8.807939635E-4	3.755723638E-3	1.736452289E-3
2.43	3.730189232E-3	3.897170881E-3	2.774806710E-3
2.44	4.949587536E-3	2.636148128E-3	2.767270342E-3
2.45	8.522939754E-3	9.858493038E-4	1.837933726E-3
2.46	8.991204286E-3	8.787560345E-4	1.736379697E-3
2.47	8.949995160E-3	1.085311664E-3	2.167879742E-3
2.48	8.845325982E-3	2.322660918E-3	2.564433590E-3
2.49	9.439393352E-3	2.441544550E-3	2.605861790E-3
2.5	9.688336729E-3	2.286099355E-3	2.299360373E-3
2.5100000000000002	9.026367270E-3	1.925121861E-3	1.557082777E-3
2.52	7.920542869E-3	1.322801352E-3	1.172803841E-3
2.5300000000000002	6.145958896E-3	1.635058380E-3	1.340325282E-3
2.54	3.620718889E-3	2.460024082E-3	1.140517529E-3
2.5500000000000003	1.030119412E-3	2.088125194E-3	1.201000794E-3
2.56	-3.891098447E-4	1.985538286E-3	1.954246660E-3
2.57	-3.608975192E-3	2.560019933E-3	1.881811166E-3
2.58	-6.113611016E-3	1.676108715E-3	2.295312161E-3
2.59	-5.653853110E-3	1.407443824E-3	2.234738604E-3
2.6	-7.739911060E-3	1.108283569E-3	2.574242129E-3
2.61	-8.189009098E-3	1.307279468E-3	1.964059640E-3
2.62	-8.884413697E-3	1.032712435E-3	1.932277696E-3
2.63	-7.919673211E-3	1.824521078E-3	1.908158891E-3
2.64	-4.646329016E-3	2.161876773E-3	2.106823916E-3
2.65	-9.531574034E-4	1.861089786E-3	2.249790865E-3
2.66	2.908253916E-3	2.180147552E-3	2.311698412E-3
2.67	6.201184620E-3	2.576381507E-3	2.269898342E-3
2.68	9.037650447E-3	2.341969023E-3	1.951040576E-3
2.69	1.298777800E-2	1.653124887E-3	1.802918399E-3
2.7	1.687421059E-2	6.114072089E-4	2.337374024E-3
2.71	1.933729868E-2	-1.906304467E-4	2.309404163E-3
2.72	2.001618264E-2	-3.372897964E-4	2.481064204E-3
2.73	1.887397446E-2	4.629895916E-4	1.743882524E-3
2.74	1.776431347E-2	3.163829538E-3	1.697533861E-3
2.75	1.552665938E-2	2.736457745E-3	1.999056032E-3
2.7600000000000002	1.308325919E-2	2.933992744E-3	2.864747073E-3
2.77	1.032938009E-2	1.840537978E-3	1.470005387E-3
2.7800000000000002	6.586646160E-3	1.903568647E-3	2.106060475E-3
2.79	2.369794386E-3	2.162324642E-3	3.264743413E-3
2.8000000000000003	-1.918834482E-3	1.832943818E-3	2.624091715E-3
2.81	-5.423240336E-3	1.895947590E-3	2.575827353E-3
2.82	-7.677181818E-3	1.608933020E-3	2.313381768E-3
2.83	-8.594177593E-3	3.619428382E-4	1.395547950E-3
2.84	-8.997974575E-3	2.349095310E-4	3.105589915E-3
2.85	-8.581157547E-3	1.192552018E-3	4.433116171E-3
2.86	-7.084196127E-3	1.954138875E-3	3.512197230E-3
2.87	-5.548393285E-3	2.119219448E-3	2.698683665E-3
2.88	-4.164900271E-3	2.228635993E-3	1.656711265E-3
2.89	-2.072004288E-3	2.553730864E-3	1.423487062E-3
2.9	1.414713339E-3	1.107535497E-3	4.731059263E-3
2.91	3.736205352E-3	2.258821669E-3	1.052087084E-3
2.92	5.011870477E-3	7.976944374E-4	1.542391844E-3
2.93	5.546939174E-3	1.162485037E-3	1.544460970E-3
2.94	5.987571109E-3	2.058088635E-3	2.407108715E-3
2.95	7.976150238E-3	1.400771543E-3	2.801065612E-3
2.96	8.748059897E-3	1.810889424E-4	2.715389958E-3
2.97	8.937550795E-3	3.278608966E-4	2.295265774E-3
2.98	8.574996422E-3	1.146184873E-3	2.562814993E-3
2.99	7.313250091E-3	2.761418662E-3	2.952478642E-3
3.0	5.756451680E-3	4.143866711E-3	2.606751191E-3
3.0100000000000002	4.024368605E-3	3.182521741E-3	2.404693763E-3
3.02	2.008081597E-3	1.725792381E-3	3.046199196E-3
3.0300000000000002	4.718793975E-4	1.397642217E-3	3.009244524E-3
3.04	-3.048159842E-3	-6.091378333E-4	1.614821075E-3
3.0500000000000003	-7.446953142E-3	8.384054342E-4	1.852364042E-3
3.06	-1.011089911E-2	1.134504470E-3	2.451222674E-3
3.0700000000000003	-1.325570998E-2	2.046499881E-3	2.673730779E-3
3.08	-1.484410902E-2	1.156370701E-3	2.227552786E-3
3.09	-1.572335883E-2	1.198921820E-3	1.861644371E-3
3.1	-1.572537971E-2	1.655786724E-3	2.449801179E-3
3.11	-1.506142588E-2	2.782471004E-3	1.684214364E-3
3.12	-1.429351628E-2	2.975998446E-3	1.335525068E-3
3.13	-1.112582248E-2	2.510960705E-3	2.186649656E-3
3.14	-6.130064985E-3	2.021523409E-3	2.491734568E-3
3.15	-1.735746652E-3	1.382179932E-3	2.425379166E-3
3.16	1.924758462E-3	8.004409882E-4	2.738436398E-3
3.17	7.011835248E-3	3.827073952E-4	1.905978255E-3
3.18	8.307760502E-3	9.715947479E-4	2.743925132E-3
3.19	9.470008270E-3	1.490600827E-3	1.958774488E-3
3.2	1.109818621E-2	1.501656374E-3	2.291039473E-3
3.21	1.228542174E-2	2.461849991E-3	2.108376757E-3
3.22	1.273617681E-2	1.416805036E-3	3.382398265E-3
3.23	1.188487261E-2	1.867185103E-3	2.422610655E-3
3.24	1.018042659E-2	2.333938772E-3	2.595385346E-3
3.25	6.731204644E-3	2.862202517E-3	2.195881968E-3
3.2600000000000002	2.668302041E-3	3.430932563E-3	2.051968045E-3
3.27	8.388904851E-4	2.612440898E-3	1.540653216E-3
3.2800000000000002	1.794165746E-4	8.218827980E-4	2.146253322E-3
3.29	-1.778930599E-3	-3.313445784E-4	2.720731017E-3
3.3000000000000003	-5.201570838E-3	4.613142626E-4	2.647403519E-3
3.31	-8.018730895E-3	2.182032689E-3	3.081324564E-3
3.3200000000000003	-8.903925287E-3	2.329758563E-3	2.666595968E-3
3.33	-7.878280244E-3	1.705568988E-3	2.354700074E-3
3.34	-6.951822391E-3	2.912429564E-3	2.726357685E-3
3.35	-5.360209553E-3	1.625829617E-3	3.138822902E-3
3.36	-2.658301785E-3	1.457867590E-3	3.059700475E-3
3.37	-1.172719068E-3	2.290002146E-3	2.145508697E-3
3.38	1.709753600E-3	3.574674669E-3	8.116657889E-4
3.39	3.621636842E-3	1.425720687E-3	2.263870439E-3
3.4	7.022826299E-3	1.485080820E-3	2.683240167E-3
3.41	9.118174452E-3	5.952204486E-4	1.920775678E-3
3.42	1.097313603E-2	4.610305759E-4	2.238186749E-3
3.43	1.291647136E-2	1.336994383E-3	2.719566764E-3
3.44	1.418548033E-2	2.430048022E-3	2.499909490E-3
3.45	1.539638367E-2	3.602778812E-3	2.299361719E-3
3.46	1.604346952E-2	3.631691776E-3	2.211361151E-3
3.47	1.554654740E-2	2.341690079E-3	1.766608866E-3
3.48	1.629639268E-2	1.572549473E-3	1.495451023E-3
3.49	1.365227451E-2	4.914731018E-4	1.132450667E-3
3.5	1.126506154E-2	-7.520332874E-5	3.561617235E-3
3.5100000000000002	7.068773009E-3	1.676788030E-3	1.913052944E-3
3.52	5.094811755E-3	1.838903983E-3	1.689906898E-3
3.5300000000000002	1.420533982E-3	1.026287022E-3	2.230923907E-3
3.54	-1.326740668E-3	9.359746580E-4	1.589898210E-3
3.5500000000000003	-2.746784987E-3	3.780168189E-4	1.654034594E-3
3.56	-6.306521775E-3	2.360712656E-3	2.128429771E-3
3.5700000000000003	-9.855255855E-3	3.550798563E-3	1.545250406E-3
3.58	-1.143939712E-2	3.821079344E-3	2.318752722E-3
3.59	-1.091386627E-2	3.172501159E-3	3.469564973E-3
3.6	-9.304054230E-3	1.583871606E-3	2.975839121E-3
3.61	-6.742427463E-3	5.764099611E-4	2.235064819E-3
3.62	-4.113006309E-3	9.816766974E-4	2.590097187E-3
3.63	-2.385012109E-3	1.545650797E-3	3.233284422E-3
3.64	1.574583435E-3	1.161770159E-3	2.175095112E-3
3.65	5.062183419E-3	5.238450975E-4	2.756483717E-3
3.66	9.130579068E-3	1.758844906E-3	2.507913888E-3
3.67	1.232880845E-2	3.155683608E-4	2.208869263E-3
3.68	1.227488662E-2	1.779981050E-3	1.194756762E-3
3.69	1.207652212E-2	1.653382389E-3	1.488249048E-3
3.7	1.104739129E-2	1.747098220E-3	1.515357646E-3
3.71	1.067199667E-2	2.708572727E-3	1.648112706E-3
3.72	8.198286053E-3	2.414907591E-3	2.115249050E-3
3.73	4.938515619E-3	1.471494158E-3	2.023006980E-3
3.74	2.414991281E-3	7.825927517E-4	1.918858885E-3
3.75	-6.410262464E-4	6.021436826E-4	2.448520168E-3
3.7600000000000002	-3.871485095E-3	1.158678475E-3	2.312148597E-3
3.77	-6.322571459E-3	1.739151965E-3	1.796297100E-3
